# sky background 0.3-1.0um
# DARK optical sky - 50%ile conditions (day 7)
# AM=1.0
#
# derived from (reverse engineered ESO model) sky spectrum plus 
# constant slope to match assumed photometric background (from
# von Hippel model.
#
# increasingly poor model at very bright sky (day14)
# patched to near-IR background at 920nm
#
# 1 March 2001 : Phil Puxley

nm         phot/s/nm/arcsec^2/m^2
320.00                    0.0000
349.99                    0.0000
350.17                    0.6506
350.43                    0.6504
350.70                    0.6501
350.96                    0.6499
351.23                    0.6496
351.49                    0.6494
351.76                    0.6492
352.02                    0.6489
352.29                    0.6487
352.55                    0.6485
352.82                    0.6482
353.08                    0.6480
353.35                    0.6478
353.62                    0.6475
353.88                    0.6473
354.15                    0.6471
354.41                    0.6468
354.68                    0.6466
354.94                    0.6464
355.21                    0.6461
355.47                    0.6459
355.74                    0.6457
356.00                    0.6454
356.27                    0.6452
356.53                    0.6449
356.80                    0.6447
357.07                    0.6445
357.33                    0.6442
357.60                    0.6440
357.86                    0.6438
358.13                    0.6435
358.39                    0.6433
358.66                    0.6431
358.92                    0.6428
359.19                    0.6426
359.45                    0.6424
359.72                    0.6421
359.98                    0.6419
360.25                    0.6417
360.51                    0.6414
360.78                    0.6412
361.05                    0.6410
361.31                    0.6407
361.58                    0.6405
361.84                    0.6402
362.11                    0.6400
362.37                    0.6398
362.64                    0.6395
362.90                    0.6393
363.17                    0.6391
363.43                    0.6388
363.70                    0.6386
363.96                    0.6384
364.23                    0.6381
364.49                    0.6379
364.76                    0.6377
365.03                    0.6374
365.29                    0.6372
365.56                    0.6370
365.82                    0.6367
366.09                    0.6365
366.35                    0.6363
366.62                    0.6360
366.88                    0.6358
367.15                    0.6356
367.41                    0.6353
367.68                    0.6351
367.94                    0.6348
368.21                    0.6346
368.47                    0.6344
368.74                    0.6341
369.01                    0.6339
369.27                    0.6337
369.54                    0.6334
369.80                    0.6332
370.07                    0.6330
370.33                    0.6327
370.60                    0.6325
370.86                    0.6323
371.13                    0.6320
371.39                    0.6318
371.66                    0.6316
371.92                    0.6313
372.19                    0.6311
372.45                    0.6309
372.72                    0.6306
372.99                    0.6304
373.25                    0.6301
373.52                    0.6299
373.78                    0.6297
374.05                    0.6294
374.31                    0.6292
374.58                    0.6290
374.84                    0.6287
375.11                    0.6285
375.37                    0.6283
375.64                    0.6280
375.90                    0.6278
376.17                    0.6276
376.43                    0.6273
376.70                    0.6271
376.97                    0.6269
377.23                    0.6266
377.50                    0.6264
377.76                    0.6262
378.03                    0.6259
378.29                    0.6257
378.56                    0.6254
378.82                    0.6252
379.09                    0.6250
379.35                    0.6247
379.62                    0.6245
379.88                    0.6243
380.15                    0.6240
380.41                    0.6238
380.68                    0.6236
380.95                    0.6233
381.21                    0.6231
381.48                    0.6229
381.74                    0.6226
382.01                    0.6224
382.27                    0.6222
382.54                    0.6219
382.80                    0.6217
383.07                    0.6215
383.33                    0.6212
383.60                    0.6210
383.86                    0.6207
384.13                    0.6205
384.40                    0.6203
384.66                    0.6200
384.93                    0.6198
385.19                    0.6196
385.46                    0.6194
385.72                    0.6191
385.99                    0.6189
386.25                    0.6187
386.52                    0.6184
386.78                    0.6182
387.05                    0.6180
387.31                    0.6178
387.58                    0.6176
387.84                    0.6173
388.11                    0.6171
388.38                    0.6169
388.64                    0.6167
388.91                    0.6165
389.17                    0.6163
389.44                    0.6160
389.70                    0.6158
389.97                    0.6156
390.23                    0.6154
390.50                    0.6152
390.76                    0.6151
391.03                    0.6149
391.29                    0.6147
391.56                    0.6145
391.82                    0.6143
392.09                    0.6141
392.36                    0.6139
392.62                    0.6137
392.89                    0.6135
393.15                    0.6133
393.42                    0.6131
393.68                    0.6130
393.95                    0.6128
394.21                    0.6126
394.48                    0.6124
394.74                    0.6122
395.01                    0.6120
395.27                    0.6118
395.54                    0.6116
395.80                    0.6114
396.07                    0.6112
396.34                    0.6110
396.60                    0.6108
396.87                    0.6106
397.13                    0.6104
397.40                    0.6102
397.66                    0.6101
397.93                    0.6099
398.19                    0.6097
398.46                    0.6095
398.72                    0.6093
398.99                    0.6091
399.25                    0.6089
399.52                    0.6087
399.78                    0.6084
400.05                    0.6082
400.32                    0.6081
400.58                    0.6079
400.85                    0.6077
401.11                    0.6074
401.38                    0.6072
401.64                    0.6070
401.91                    0.6068
402.17                    0.6066
402.44                    0.6064
402.70                    0.6062
402.97                    0.6060
403.23                    0.6058
403.50                    0.6056
403.76                    0.6054
404.03                    0.6052
404.30                    0.6050
404.56                    0.6048
404.83                    0.6046
405.09                    0.6044
405.36                    0.6042
405.62                    0.6040
405.89                    0.6038
406.15                    0.6036
406.42                    0.6034
406.68                    0.6032
406.95                    0.6031
407.21                    0.6029
407.48                    0.6027
407.74                    0.6025
408.01                    0.6023
408.28                    0.6021
408.54                    0.6019
408.81                    0.6018
409.07                    0.6016
409.34                    0.6014
409.60                    0.6012
409.87                    0.6010
410.13                    0.6009
410.40                    0.6007
410.66                    0.6006
410.93                    0.6004
411.19                    0.6003
411.46                    0.6001
411.73                    0.6000
411.99                    0.5998
412.26                    0.5996
412.52                    0.5995
412.79                    0.5993
413.05                    0.5992
413.32                    0.5990
413.58                    0.5989
413.85                    0.5987
414.11                    0.5985
414.38                    0.5984
414.64                    0.5982
414.91                    0.5981
415.17                    0.5979
415.44                    0.5977
415.71                    0.5976
415.97                    0.5974
416.24                    0.5972
416.50                    0.5971
416.77                    0.5969
417.03                    0.5967
417.30                    0.5966
417.56                    0.5964
417.83                    0.5962
418.09                    0.5960
418.36                    0.5959
418.62                    0.5957
418.89                    0.5955
419.15                    0.5953
419.42                    0.5952
419.69                    0.5950
419.95                    0.5948
420.22                    0.5946
420.48                    0.5944
420.75                    0.5942
421.01                    0.5940
421.28                    0.5938
421.54                    0.5936
421.81                    0.5934
422.07                    0.5932
422.34                    0.5930
422.60                    0.5928
422.87                    0.5926
423.13                    0.5924
423.40                    0.5922
423.67                    0.5920
423.93                    0.5918
424.20                    0.5916
424.46                    0.5914
424.73                    0.5912
424.99                    0.5910
425.26                    0.5908
425.52                    0.5906
425.79                    0.5904
426.05                    0.5902
426.32                    0.5900
426.58                    0.5898
426.85                    0.5896
427.11                    0.5894
427.38                    0.5892
427.65                    0.5890
427.91                    0.5888
428.18                    0.5886
428.44                    0.5884
428.71                    0.5882
428.97                    0.5880
429.24                    0.5879
429.50                    0.5877
429.77                    0.5875
430.03                    0.5873
430.30                    0.5871
430.56                    0.5869
430.83                    0.5868
431.09                    0.5866
431.36                    0.5864
431.63                    0.5862
431.89                    0.5860
432.16                    0.5859
432.42                    0.5857
432.69                    0.5855
432.95                    0.5853
433.22                    0.5852
433.48                    0.5850
433.75                    0.5848
434.01                    0.5846
434.28                    0.5845
434.54                    0.5843
434.81                    0.5841
435.07                    0.5840
435.34                    0.5838
435.61                    0.5836
435.87                    0.5834
436.14                    0.5833
436.40                    0.5831
436.67                    0.5830
436.93                    0.5828
437.20                    0.5826
437.46                    0.5825
437.73                    0.5823
437.99                    0.5821
438.26                    0.5820
438.52                    0.5818
438.79                    0.5817
439.05                    0.5815
439.32                    0.5814
439.59                    0.5812
439.85                    0.5811
440.12                    0.5809
440.38                    0.5808
440.65                    0.5807
440.91                    0.5806
441.18                    0.5804
441.44                    0.5803
441.71                    0.5802
441.97                    0.5801
442.24                    0.5799
442.50                    0.5798
442.77                    0.5797
443.04                    0.5796
443.30                    0.5794
443.57                    0.5793
443.83                    0.5792
444.10                    0.5790
444.36                    0.5789
444.63                    0.5788
444.89                    0.5787
445.16                    0.5785
445.42                    0.5784
445.69                    0.5782
445.95                    0.5781
446.22                    0.5780
446.48                    0.5778
446.75                    0.5777
447.02                    0.5776
447.28                    0.5774
447.55                    0.5773
447.81                    0.5771
448.08                    0.5770
448.34                    0.5768
448.61                    0.5767
448.87                    0.5766
449.14                    0.5764
449.40                    0.5763
449.67                    0.5761
449.93                    0.5759
450.20                    0.5758
450.46                    0.5756
450.73                    0.5754
451.00                    0.5753
451.26                    0.5751
451.53                    0.5749
451.79                    0.5747
452.06                    0.5746
452.32                    0.5744
452.59                    0.5742
452.85                    0.5741
453.12                    0.5739
453.38                    0.5737
453.65                    0.5735
453.91                    0.5734
454.18                    0.5732
454.44                    0.5730
454.71                    0.5729
454.98                    0.5727
455.24                    0.5725
455.51                    0.5724
455.77                    0.5722
456.04                    0.5720
456.30                    0.5719
456.57                    0.5717
456.83                    0.5715
457.10                    0.5714
457.36                    0.5712
457.63                    0.5710
457.89                    0.5709
458.16                    0.5707
458.42                    0.5705
458.69                    0.5704
458.96                    0.5702
459.22                    0.5701
459.49                    0.5699
459.75                    0.5697
460.02                    0.5696
460.28                    0.5694
460.55                    0.5693
460.81                    0.5691
461.08                    0.5690
461.34                    0.5688
461.61                    0.5687
461.87                    0.5685
462.14                    0.5684
462.40                    0.5682
462.67                    0.5681
462.94                    0.5679
463.20                    0.5678
463.47                    0.5676
463.73                    0.5675
464.00                    0.5674
464.26                    0.5672
464.53                    0.5671
464.79                    0.5669
465.06                    0.5668
465.32                    0.5666
465.59                    0.5665
465.85                    0.5664
466.12                    0.5662
466.38                    0.5661
466.65                    0.5659
466.92                    0.5658
467.18                    0.5657
467.45                    0.5656
467.71                    0.5654
467.98                    0.5653
468.24                    0.5652
468.51                    0.5651
468.77                    0.5649
469.04                    0.5648
469.30                    0.5647
469.57                    0.5646
469.83                    0.5645
470.10                    0.5644
470.37                    0.5643
470.63                    0.5642
470.90                    0.5641
471.16                    0.5640
471.43                    0.5639
471.69                    0.5638
471.96                    0.5638
472.22                    0.5637
472.49                    0.5636
472.75                    0.5635
473.02                    0.5634
473.28                    0.5633
473.55                    0.5632
473.81                    0.5631
474.08                    0.5630
474.35                    0.5629
474.61                    0.5628
474.88                    0.5627
475.14                    0.5626
475.41                    0.5625
475.67                    0.5624
475.94                    0.5623
476.20                    0.5622
476.47                    0.5621
476.73                    0.5620
477.00                    0.5618
477.26                    0.5617
477.53                    0.5616
477.79                    0.5615
478.06                    0.5614
478.33                    0.5612
478.59                    0.5611
478.86                    0.5610
479.12                    0.5608
479.39                    0.5607
479.65                    0.5606
479.92                    0.5604
480.18                    0.5603
480.45                    0.5601
480.71                    0.5599
480.98                    0.5597
481.24                    0.5595
481.51                    0.5594
481.77                    0.5592
482.04                    0.5590
482.31                    0.5588
482.57                    0.5587
482.84                    0.5585
483.10                    0.5583
483.37                    0.5581
483.63                    0.5580
483.90                    0.5578
484.16                    0.5576
484.43                    0.5574
484.69                    0.5572
484.96                    0.5571
485.22                    0.5569
485.49                    0.5567
485.75                    0.5566
486.02                    0.5564
486.29                    0.5562
486.55                    0.5560
486.82                    0.5559
487.08                    0.5557
487.35                    0.5555
487.61                    0.5554
487.88                    0.5552
488.14                    0.5550
488.41                    0.5549
488.67                    0.5547
488.94                    0.5546
489.20                    0.5544
489.47                    0.5542
489.73                    0.5541
490.00                    0.5539
490.27                    0.5538
490.53                    0.5536
490.80                    0.5535
491.06                    0.5533
491.33                    0.5532
491.59                    0.5531
491.86                    0.5529
492.12                    0.5528
492.39                    0.5526
492.65                    0.5525
492.92                    0.5523
493.18                    0.5522
493.45                    0.5521
493.71                    0.5519
493.98                    0.5518
494.25                    0.5516
494.51                    0.5515
494.78                    0.5514
495.04                    0.5512
495.31                    0.5511
495.57                    0.5509
495.84                    0.5508
496.10                    0.5506
496.37                    0.5505
496.63                    0.5504
496.90                    0.5502
497.16                    0.5501
497.43                    0.5500
497.70                    0.5498
497.96                    0.5497
498.23                    0.5495
498.49                    0.5494
498.76                    0.5493
499.02                    0.5491
499.29                    0.5490
499.55                    0.5489
499.82                    0.5487
500.08                    0.5486
500.35                    0.5485
500.61                    0.5483
500.88                    0.5482
501.14                    0.5481
501.41                    0.5480
501.68                    0.5478
501.94                    0.5477
502.21                    0.5476
502.47                    0.5475
502.74                    0.5473
503.00                    0.5472
503.27                    0.5471
503.53                    0.5470
503.80                    0.5468
504.06                    0.5467
504.33                    0.5466
504.59                    0.5465
504.86                    0.5463
505.12                    0.5462
505.39                    0.5461
505.66                    0.5460
505.92                    0.5458
506.19                    0.5457
506.45                    0.5456
506.72                    0.5455
506.98                    0.5453
507.25                    0.5452
507.51                    0.5451
507.78                    0.5450
508.04                    0.5448
508.31                    0.5447
508.57                    0.5446
508.84                    0.5445
509.10                    0.5443
509.37                    0.5442
509.64                    0.5441
509.90                    0.5440
510.17                    0.5439
510.43                    0.5438
510.70                    0.5436
510.96                    0.5441
511.23                    0.5410
511.49                    0.5448
511.76                    0.5468
512.02                    0.5460
512.29                    0.5352
512.55                    0.5225
512.82                    0.5227
513.08                    0.5347
513.35                    0.5418
513.62                    0.5381
513.88                    0.5306
514.15                    0.5325
514.41                    0.5335
514.68                    0.5357
514.94                    0.5315
515.21                    0.5293
515.47                    0.5236
515.74                    0.5209
516.00                    0.5225
516.27                    0.5154
516.53                    0.5095
516.80                    0.5051
517.06                    0.5190
517.33                    0.5250
517.60                    0.5342
517.86                    0.5216
518.13                    0.5272
518.39                    0.5282
518.66                    0.5450
518.92                    0.5392
519.19                    0.5503
519.45                    0.6576
519.72                    0.7855
519.98                    0.8224
520.25                    0.7235
520.51                    0.5993
520.78                    0.5505
521.04                    0.5336
521.31                    0.5312
521.58                    0.5331
521.84                    0.5398
522.11                    0.5520
522.37                    0.5388
522.64                    0.5260
522.90                    0.5168
523.17                    0.5239
523.43                    0.5301
523.70                    0.5352
523.96                    0.5370
524.23                    0.5340
524.49                    0.5284
524.76                    0.5233
525.03                    0.5315
525.29                    0.5356
525.56                    0.5406
525.82                    0.5275
526.09                    0.5120
526.35                    0.5022
526.62                    0.5024
526.88                    0.5126
527.15                    0.5297
527.41                    0.5441
527.68                    0.5480
527.94                    0.5531
528.21                    0.5400
528.47                    0.5268
528.74                    0.5112
529.01                    0.5173
529.27                    0.5264
529.54                    0.5339
529.80                    0.5357
530.07                    0.5361
530.33                    0.5312
530.60                    0.5303
530.86                    0.5464
531.13                    0.5489
531.39                    0.5475
531.66                    0.5291
531.92                    0.5255
532.19                    0.5224
532.45                    0.5310
532.72                    0.5473
532.99                    0.5680
533.25                    0.5591
533.52                    0.5413
533.78                    0.5223
534.05                    0.5226
534.31                    0.5283
534.58                    0.5315
534.84                    0.5276
535.11                    0.5206
535.37                    0.5194
535.64                    0.5269
535.90                    0.5321
536.17                    0.5307
536.43                    0.5253
536.70                    0.5233
536.97                    0.5212
537.23                    0.5293
537.50                    0.5259
537.76                    0.5201
538.03                    0.5058
538.29                    0.5033
538.56                    0.5063
538.82                    0.5187
539.09                    0.5155
539.35                    0.5144
539.62                    0.5076
539.88                    0.5111
540.15                    0.5137
540.41                    0.5120
540.68                    0.5207
540.95                    0.5155
541.21                    0.5242
541.48                    0.5135
541.74                    0.5202
542.01                    0.5075
542.27                    0.5052
542.54                    0.5033
542.80                    0.5087
543.07                    0.5197
543.33                    0.5283
543.60                    0.5280
543.86                    0.5293
544.13                    0.5135
544.39                    0.5187
544.66                    0.5140
544.93                    0.5268
545.19                    0.5256
545.46                    0.5239
545.72                    0.5214
545.99                    0.5255
546.25                    0.5314
546.52                    0.5346
546.78                    0.5280
547.05                    0.5123
547.31                    0.4988
547.58                    0.4996
547.84                    0.5084
548.11                    0.5085
548.37                    0.5144
548.64                    0.5200
548.91                    0.5378
549.17                    0.5341
549.44                    0.5414
549.70                    0.5377
549.97                    0.5411
550.23                    0.5353
550.50                    0.5360
550.76                    0.5356
551.03                    0.5333
551.29                    0.5296
551.56                    0.5282
551.82                    0.5267
552.09                    0.5200
552.36                    0.5088
552.62                    0.5046
552.89                    0.5085
553.15                    0.5279
553.42                    0.5320
553.68                    0.5416
553.95                    0.5458
554.21                    0.5669
554.48                    0.5713
554.74                    0.5652
555.01                    0.5529
555.27                    0.5459
555.54                    0.5396
555.80                    0.5437
556.07                    0.5569
556.34                    0.5680
556.60                    0.5689
556.87                    0.5813
557.13                    2.5442
557.40                    5.2816
557.66                    7.1786
557.93                    5.6734
558.19                    2.9343
558.46                    1.0135
558.72                    0.5606
558.99                    0.5546
559.25                    0.5497
559.52                    0.5387
559.78                    0.5386
560.05                    0.5557
560.32                    0.5657
560.58                    0.5712
560.85                    0.5478
561.11                    0.5217
561.38                    0.5216
561.64                    0.5415
561.91                    0.5744
562.17                    0.5858
562.44                    0.5820
562.70                    0.5564
562.97                    0.5335
563.23                    0.5178
563.50                    0.5244
563.76                    0.5328
564.03                    0.5378
564.30                    0.5469
564.56                    0.5585
564.83                    0.5565
565.09                    0.5395
565.36                    0.5197
565.62                    0.5191
565.89                    0.5259
566.15                    0.5359
566.42                    0.5489
566.68                    0.5582
566.95                    0.5525
567.21                    0.5457
567.48                    0.5408
567.74                    0.5492
568.01                    0.5383
568.28                    0.5325
568.54                    0.5172
568.81                    0.5285
569.07                    0.5430
569.34                    0.5588
569.60                    0.5708
569.87                    0.5591
570.13                    0.5581
570.40                    0.5405
570.66                    0.5443
570.93                    0.5337
571.19                    0.5359
571.46                    0.5394
571.72                    0.5565
571.99                    0.5651
572.26                    0.5684
572.52                    0.5551
572.79                    0.5532
573.05                    0.5486
573.32                    0.5500
573.58                    0.5457
573.85                    0.5401
574.11                    0.5468
574.38                    0.5500
574.64                    0.5530
574.91                    0.5395
575.17                    0.5343
575.44                    0.5287
575.70                    0.5394
575.97                    0.5305
576.24                    0.5321
576.50                    0.5317
576.77                    0.5430
577.03                    0.5448
577.30                    0.5405
577.56                    0.5358
577.83                    0.5359
578.09                    0.5328
578.36                    0.5330
578.62                    0.5234
578.89                    0.5219
579.15                    0.5239
579.42                    0.5261
579.68                    0.5336
579.95                    0.5366
580.22                    0.5516
580.48                    0.5525
580.75                    0.5453
581.01                    0.5337
581.28                    0.5347
581.54                    0.5413
581.81                    0.5586
582.07                    0.5698
582.34                    0.5732
582.60                    0.5585
582.87                    0.5572
583.13                    0.5564
583.40                    0.5562
583.67                    0.5547
583.93                    0.5693
584.20                    0.6552
584.46                    0.6469
584.73                    0.6359
584.99                    0.5519
585.26                    0.5593
585.52                    0.5490
585.79                    0.5563
586.05                    0.5923
586.32                    0.6735
586.58                    0.7177
586.85                    0.7092
587.11                    0.6520
587.38                    0.6309
587.65                    0.6143
587.91                    0.6130
588.18                    0.6259
588.44                    1.1035
588.71                    1.6267
588.97                    2.0480
589.24                    1.8658
589.50                    1.5205
589.77                    1.1120
590.03                    0.8300
590.30                    0.6691
590.56                    0.6491
590.83                    0.6605
591.09                    0.6935
591.36                    0.7161
591.63                    0.7091
591.89                    0.6823
592.16                    0.6586
592.42                    0.6488
592.69                    0.6647
592.95                    0.7058
593.22                    0.7473
593.48                    0.7067
593.75                    0.6392
594.01                    0.5915
594.28                    0.6110
594.54                    0.6271
594.81                    0.6628
595.07                    0.6929
595.34                    0.6951
595.61                    0.6546
595.87                    0.6002
596.14                    0.5818
596.40                    0.5816
596.67                    0.6070
596.93                    0.6321
597.20                    0.6564
597.46                    0.6759
597.73                    0.6685
597.99                    0.6392
598.26                    0.5984
598.52                    0.5885
598.79                    0.6016
599.05                    0.5976
599.32                    0.5883
599.59                    0.5836
599.85                    0.5906
600.12                    0.6068
600.38                    0.5982
600.65                    0.5898
600.91                    0.5671
601.18                    0.5560
601.44                    0.5445
601.71                    0.5382
601.97                    0.5318
602.24                    0.5296
602.50                    0.5396
602.77                    0.5512
603.03                    0.5558
603.30                    0.5499
603.57                    0.5422
603.83                    0.5385
604.10                    0.5375
604.36                    0.5371
604.63                    0.5309
604.89                    0.5196
605.16                    0.5075
605.42                    0.5000
605.69                    0.5011
605.95                    0.5074
606.22                    0.5181
606.48                    0.5228
606.75                    0.5142
607.01                    0.5118
607.28                    0.5044
607.55                    0.5133
607.81                    0.5033
608.08                    0.5063
608.34                    0.5001
608.61                    0.5009
608.87                    0.5014
609.14                    0.5015
609.40                    0.5111
609.67                    0.5137
609.93                    0.5155
610.20                    0.5110
610.46                    0.5137
610.73                    0.5119
611.00                    0.5097
611.26                    0.4967
611.53                    0.4956
611.79                    0.4840
612.06                    0.4808
612.32                    0.4840
612.59                    0.4886
612.85                    0.4906
613.12                    0.4805
613.38                    0.5073
613.65                    0.5335
613.91                    0.5592
614.18                    0.5445
614.44                    0.5351
614.71                    0.5121
614.98                    0.5071
615.24                    0.5299
615.51                    0.5710
615.77                    0.5747
616.04                    0.5342
616.30                    0.5098
616.57                    0.5312
616.83                    0.5633
617.10                    0.8651
617.36                    0.8548
617.63                    0.8330
617.89                    0.5132
618.16                    0.4930
618.42                    0.4798
618.69                    0.4767
618.96                    0.4741
619.22                    0.4811
619.49                    0.4823
619.75                    0.5085
620.02                    0.5356
620.28                    0.5481
620.55                    0.5260
620.81                    0.5045
621.08                    0.5032
621.34                    0.5122
621.61                    0.5367
621.87                    0.5645
622.14                    0.5638
622.40                    0.5301
622.67                    0.5071
622.94                    0.5657
623.20                    0.7237
623.47                    0.8516
623.73                    0.8809
624.00                    0.7791
624.26                    0.6769
624.53                    0.5828
624.79                    0.5360
625.06                    0.5452
625.32                    0.6440
625.59                    0.7577
625.85                    0.7916
626.12                    0.7377
626.38                    0.6654
626.65                    0.6220
626.92                    0.5911
627.18                    0.5667
627.45                    0.5620
627.71                    0.5681
627.98                    0.5811
628.24                    0.6278
628.51                    0.7090
628.77                    0.7400
629.04                    0.7341
629.30                    1.8589
629.57                    7.4684
629.83                   12.8578
630.10                   15.6541
630.36                   10.0938
630.63                    4.7374
630.90                    0.7178
631.16                    0.6041
631.43                    0.5235
631.69                    0.5625
631.96                    0.6236
632.22                    0.6332
632.49                    0.6907
632.75                    0.7228
633.02                    0.7746
633.28                    0.6756
633.55                    0.5685
633.81                    0.4897
634.08                    0.4845
634.34                    0.5232
634.61                    0.5457
634.88                    0.5738
635.14                    0.6122
635.41                    0.6822
635.67                    1.2454
635.94                    2.8475
636.20                    4.5381
636.47                    5.0956
636.73                    3.4328
637.00                    1.6406
637.26                    0.5010
637.53                    0.5115
637.79                    0.5298
638.06                    0.5439
638.33                    0.5590
638.59                    0.5607
638.86                    0.5384
639.12                    0.4989
639.39                    0.4742
639.65                    0.4632
639.92                    0.4706
640.18                    0.4677
640.45                    0.4775
640.71                    0.4707
640.98                    0.4743
641.24                    0.4712
641.51                    0.4818
641.77                    0.4975
642.04                    0.5092
642.31                    0.5014
642.57                    0.4813
642.84                    0.4683
643.10                    0.4645
643.37                    0.4564
643.63                    0.4429
643.90                    0.4377
644.16                    0.4418
644.43                    0.4527
644.69                    0.4633
644.96                    0.4802
645.22                    0.5087
645.49                    0.5184
645.75                    0.5253
646.02                    0.5844
646.29                    0.6736
646.55                    0.7536
646.82                    0.7426
647.08                    0.6667
647.35                    0.5925
647.61                    0.5258
647.88                    0.5133
648.14                    0.4950
648.41                    0.4933
648.67                    0.4757
648.94                    0.4657
649.20                    0.4663
649.47                    0.4718
649.73                    0.4803
650.00                    0.4842
650.27                    0.5110
650.53                    0.5044
650.80                    0.4929
651.06                    0.4640
651.33                    0.4703
651.59                    0.4658
651.86                    0.4611
652.12                    0.4647
652.39                    0.4729
652.65                    0.4753
652.92                    0.4753
653.18                    0.4739
653.45                    0.4806
653.71                    0.4848
653.98                    0.4937
654.25                    0.4958
654.51                    0.4845
654.78                    0.4887
655.04                    0.5453
655.31                    0.5547
655.57                    0.5547
655.84                    0.4976
656.10                    0.4889
656.37                    0.4716
656.63                    0.5385
656.90                    0.5485
657.16                    0.5556
657.43                    0.5179
657.69                    0.5079
657.96                    0.5077
658.23                    0.4743
658.49                    0.4805
658.76                    0.4751
659.02                    0.4724
659.29                    0.4719
659.55                    0.4723
659.82                    0.4728
660.08                    0.4742
660.35                    0.4747
660.61                    0.4769
660.88                    0.4708
661.14                    0.4840
661.41                    0.4827
661.67                    0.4846
661.94                    0.4723
662.21                    0.4743
662.47                    0.4934
662.74                    0.5133
663.00                    0.5123
663.27                    0.4964
663.53                    0.4864
663.80                    0.4866
664.06                    0.4831
664.33                    0.4744
664.59                    0.4764
664.86                    0.4771
665.12                    0.4803
665.39                    0.4838
665.66                    0.4867
665.92                    0.4847
666.19                    0.4804
666.45                    0.4848
666.72                    0.4850
666.98                    0.4854
667.25                    0.4790
667.51                    0.4794
667.78                    0.4817
668.04                    0.4821
668.31                    0.4825
668.57                    0.4810
668.84                    0.4814
669.10                    0.4818
669.37                    0.4824
669.64                    0.4925
669.90                    0.4955
670.17                    0.4957
670.43                    0.5010
670.70                    0.5188
670.96                    0.5472
671.23                    0.5428
671.49                    0.5382
671.76                    0.5260
672.02                    0.5195
672.29                    0.5162
672.55                    0.5052
672.82                    0.5026
673.08                    0.4917
673.35                    0.5191
673.62                    0.5195
673.88                    0.5199
674.15                    0.4906
674.41                    0.4924
674.68                    0.4938
674.94                    0.4942
675.21                    0.4935
675.47                    0.4958
675.74                    0.4950
676.00                    0.4986
676.27                    0.4980
676.53                    0.4981
676.80                    0.5072
677.06                    0.5236
677.33                    0.5241
677.60                    0.5141
677.86                    0.4966
678.13                    0.4968
678.39                    0.4954
678.66                    0.4959
678.92                    0.5169
679.19                    0.5175
679.45                    0.5218
679.72                    0.5208
679.98                    0.5210
680.25                    0.5173
680.51                    0.4984
680.78                    0.4988
681.04                    0.4992
681.31                    0.4996
681.58                    0.5000
681.84                    0.5004
682.11                    0.5008
682.37                    0.5012
682.64                    0.5208
682.90                    0.5263
683.17                    0.8669
683.43                    0.8483
683.70                    0.8438
683.96                    0.5183
684.23                    0.5187
684.49                    0.5191
684.76                    0.5048
685.02                    0.5051
685.29                    0.5055
685.56                    0.5059
685.82                    0.5063
686.09                    1.0088
686.35                    1.0097
686.62                    1.0106
686.88                    0.5185
687.15                    0.5189
687.41                    0.5192
687.68                    0.5089
687.94                    0.5273
688.21                    0.5277
688.47                    0.5292
688.74                    0.5115
689.00                    0.5150
689.27                    0.5143
689.54                    0.5176
689.80                    0.7738
690.07                    0.7746
690.33                    0.7778
690.60                    0.5183
690.86                    0.5187
691.13                    0.5138
691.39                    0.5142
691.66                    0.5268
691.92                    0.5272
692.19                    0.5276
692.45                    0.5156
692.72                    0.5160
692.99                    0.5163
693.25                    0.5251
693.52                    0.5346
693.78                    0.5483
694.05                    0.5418
694.31                    0.5345
694.58                    0.5214
694.84                    0.5342
695.11                    0.5396
695.37                    0.5593
695.64                    0.5747
695.90                    0.5848
696.17                    0.5707
696.43                    0.5450
696.70                    0.5922
696.97                    0.5978
697.23                    0.6061
697.50                    0.5474
697.76                    0.5386
698.03                    0.5280
698.29                    0.5240
698.56                    0.5313
698.82                    0.5340
699.09                    0.5343
699.35                    0.5348
699.62                    0.5370
699.88                    0.5499
700.15                    0.5457
700.41                    0.5418
700.68                    0.5295
700.95                    0.5263
701.21                    0.5266
701.48                    0.5269
701.74                    0.5272
702.01                    0.5274
702.27                    0.5277
702.54                    0.5284
702.80                    0.5320
703.07                    0.5338
703.33                    0.5336
703.60                    0.5349
703.86                    0.5761
704.13                    0.5914
704.39                    0.5877
704.66                    0.5470
704.93                    0.5442
705.19                    0.5442
705.46                    0.5431
705.72                    0.5440
705.99                    0.5569
706.25                    0.5572
706.52                    0.5480
706.78                    0.5601
707.05                    0.5805
707.31                    0.5777
707.58                    0.5633
707.84                    0.5522
708.11                    0.5526
708.37                    0.5432
708.64                    0.5349
708.91                    0.5355
709.17                    0.5358
709.44                    0.5425
709.70                    0.5440
709.97                    0.5443
710.23                    0.5378
710.50                    0.5654
710.76                    0.5762
711.03                    0.5767
711.29                    0.5481
711.56                    0.5379
711.82                    0.5381
712.09                    0.5384
712.35                    0.5386
712.62                    0.5390
712.89                    0.5449
713.15                    0.5453
713.42                    0.5456
713.68                    0.5504
713.95                    0.5507
714.21                    0.5511
714.48                    0.5411
714.74                    0.5414
715.01                    0.5417
715.27                    0.5451
715.54                    0.5543
715.80                    0.5547
716.07                    0.5519
716.33                    0.5478
716.60                    0.5482
716.87                    0.5485
717.13                    0.5443
717.40                    0.5446
717.66                    0.5485
717.93                    0.5488
718.19                    0.5491
718.46                    0.5459
718.72                    0.5463
718.99                    0.5466
719.25                    0.5469
719.52                    0.5473
719.78                    0.5476
720.05                    0.5480
720.32                    0.5484
720.58                    0.5488
720.85                    0.5492
721.11                    0.5495
721.38                    0.5499
721.64                    0.5503
721.91                    0.5507
722.17                    0.5533
722.44                    0.5537
722.70                    0.5563
722.97                    0.5545
723.23                    0.5549
723.50                    0.5531
723.76                    0.6681
724.03                    0.6688
724.30                    0.7660
724.56                    0.6637
724.83                    0.6671
725.09                    0.5705
725.36                    0.5628
725.62                    0.5603
725.89                    0.5607
726.15                    0.5570
726.42                    0.5574
726.68                    0.5660
726.95                    0.5664
727.21                    0.6607
727.48                    0.6531
727.74                    0.6537
728.01                    0.5598
728.28                    0.5665
728.54                    0.5670
728.81                    0.5697
729.07                    0.5656
729.34                    0.7461
729.60                    0.7445
729.87                    0.7434
730.13                    0.5906
730.40                    0.5917
730.66                    0.5921
730.93                    0.5917
731.19                    0.5916
731.46                    0.6198
731.72                    0.6266
731.99                    0.6271
732.26                    0.5997
732.52                    0.5666
732.79                    0.5707
733.05                    0.5710
733.32                    0.5715
733.58                    0.5682
733.85                    2.3105
734.11                    2.3272
734.38                    2.3304
734.64                    0.5887
734.91                    0.5765
735.17                    0.5769
735.44                    0.5867
735.70                    0.5862
735.97                    0.5922
736.24                    0.5778
736.50                    0.5843
736.77                    0.5790
737.03                    0.5992
737.30                    0.5962
737.56                    0.6149
737.83                    0.5998
738.09                    0.6202
738.36                    0.6024
738.62                    0.5992
738.89                    0.5774
739.15                    0.5776
739.42                    0.5774
739.68                    0.5820
739.95                    0.5901
740.22                    0.5908
740.48                    0.5872
740.75                    0.5895
741.01                    0.6267
741.28                    0.6288
741.54                    0.6507
741.81                    0.6138
742.07                    0.6207
742.34                    0.5898
742.60                    0.6137
742.87                    0.6050
743.13                    0.6134
743.40                    0.5902
743.66                    0.6069
743.93                    0.6041
744.20                    0.6070
744.46                    0.5911
744.73                    0.5914
744.99                    0.6028
745.26                    0.6032
745.52                    0.6003
745.79                    0.6009
746.05                    0.6033
746.32                    0.6153
746.58                    0.6134
746.85                    0.8019
747.11                    0.8321
747.38                    0.8217
747.64                    0.7317
747.91                    0.7035
748.18                    0.7251
748.44                    0.6278
748.71                    0.6208
748.97                    0.5994
749.24                    0.6008
749.50                    0.6089
749.77                    0.6278
750.03                    0.6412
750.30                    0.6283
750.56                    0.6275
750.83                    0.6980
751.09                    0.7009
751.36                    0.7374
751.63                    0.6571
751.89                    0.6578
752.16                    0.9857
752.42                    0.9859
752.69                    0.9937
752.95                    0.6401
753.22                    0.6571
753.48                    0.6555
753.75                    0.6833
754.01                    0.6793
754.28                    0.6736
754.54                    0.6192
754.81                    0.6277
755.07                    0.6661
755.34                    0.6749
755.61                    0.6516
755.87                    0.6178
756.14                    0.6284
756.40                    0.6414
756.67                    0.6375
756.93                    1.2702
757.20                    1.3437
757.46                    1.3430
757.73                    0.6952
757.99                    0.6156
758.26                    0.6240
758.52                    0.6205
758.79                    0.6144
759.05                    0.6117
759.32                    0.6122
759.59                    0.8086
759.85                    0.8046
760.12                    0.8051
760.38                    0.6097
760.65                    0.6103
760.91                    0.6108
761.18                    0.6196
761.44                    0.6202
761.71                    0.6322
761.97                    0.6436
762.24                    0.6441
762.50                    0.6350
762.77                    0.6166
763.03                    0.6246
763.30                    0.6235
763.57                    0.6256
763.83                    0.6188
764.10                    0.6194
764.36                    0.6472
764.63                    0.6479
764.89                    0.6485
765.16                    0.6203
765.42                    0.6209
765.69                    0.6216
765.95                    0.8233
766.22                    0.8241
766.48                    0.8248
766.75                    0.6241
767.01                    0.6287
767.28                    0.6294
767.55                    0.6300
767.81                    0.6294
768.08                    0.6300
768.34                    0.6317
768.61                    0.6296
768.87                    0.6545
769.14                    0.6542
769.40                    0.6549
769.67                    0.6670
769.93                    0.6730
770.20                    0.6736
770.46                    0.6687
770.73                    0.6840
770.99                    2.4654
771.26                    2.8044
771.53                    3.1656
771.79                    1.4214
772.06                    1.0719
772.32                    1.0584
772.59                    1.0232
772.85                    1.0127
773.12                    0.6723
773.38                    0.6730
773.65                    0.6664
773.91                    0.6461
774.18                    0.6468
774.44                    0.6510
774.71                    0.6658
774.97                    0.6860
775.24                    0.6832
775.51                    0.6658
775.77                    0.6749
776.04                    0.6756
776.30                    0.6775
776.57                    0.6502
776.83                    0.6510
777.10                    0.7148
777.36                    0.7156
777.63                    0.7163
777.89                    0.6528
778.16                    0.6581
778.42                    0.6887
778.69                    0.7004
778.96                    0.7377
779.22                    0.7120
779.49                    0.7017
779.75                    0.6615
780.02                    0.6755
780.28                    0.6762
780.55                    1.0452
780.81                    1.0290
781.08                    1.0296
781.34                    0.6834
781.61                    0.7331
781.87                    4.5911
782.14                    4.5688
782.40                    4.5185
782.67                    0.6732
782.94                    0.6740
783.20                    0.6747
783.47                    0.6695
783.73                    0.6703
784.00                    0.6712
784.26                    0.6711
784.53                    0.6720
784.79                    0.6785
785.06                    3.5219
785.32                    3.5210
785.59                    3.5145
785.85                    0.6760
786.12                    0.6768
786.38                    0.6776
786.65                    0.6784
786.92                    0.6793
787.18                    0.6801
787.45                    0.6809
787.71                    0.6818
787.98                    0.6826
788.24                    0.6835
788.51                    0.6930
788.77                    0.7825
789.04                    0.7834
789.30                    0.7756
789.57                    0.6879
789.83                    0.6888
790.10                    0.6897
790.36                    0.6906
790.63                    0.6915
790.90                    0.6942
791.16                    0.6951
791.43                    0.6960
791.69                    0.7275
791.96                    0.7285
792.22                    0.7294
792.49                    0.6979
792.75                    0.7239
793.02                    0.7248
793.28                    0.7257
793.55                    0.7016
793.81                    0.7025
794.08                    0.7041
794.34                    0.7421
794.61                    0.7687
794.88                    0.7690
795.14                    0.7380
795.41                    0.7134
795.67                    0.7144
795.94                    0.7102
796.20                    3.3682
796.47                    3.3699
796.73                    3.3717
797.00                    0.7142
797.26                    0.7199
797.53                    0.7209
797.79                    0.7219
798.06                    0.7183
798.32                    0.7194
798.59                    0.7204
798.86                    0.7304
799.12                    0.7571
799.39                    0.7582
799.65                    0.7502
799.92                    0.7270
800.18                    0.7328
800.45                    0.7339
800.71                    0.7337
800.98                    0.7301
801.24                    0.7999
801.51                    0.8011
801.77                    0.9146
802.04                    0.8558
802.30                    2.3842
802.57                    2.3763
802.84                    2.3718
803.10                    0.8448
803.37                    0.7462
803.63                    0.7551
803.90                    0.7515
804.16                    0.7515
804.43                    0.7448
804.69                    0.7849
804.96                    1.0071
805.22                    1.0216
805.49                    1.0042
805.75                    0.8181
806.02                    0.8065
806.29                    0.7995
806.55                    0.7954
806.82                    0.8285
807.08                    0.8177
807.35                    0.8143
807.61                    0.8151
807.88                    0.8570
808.14                    0.9262
808.41                    0.8976
808.67                    0.8582
808.94                    0.7668
809.20                    0.7696
809.47                    0.7857
809.73                    0.7872
810.00                    1.1174
810.27                    1.1038
810.53                    1.1424
810.80                    0.8165
811.06                    0.8333
811.33                    0.8037
811.59                    0.8134
811.86                    0.8216
812.12                    0.8188
812.39                    0.8541
812.65                    0.8404
812.92                    0.8652
813.18                    0.8248
813.45                    0.8271
813.71                    0.8301
813.98                    0.8407
814.25                    0.8428
814.51                    0.8772
814.78                    1.0703
815.04                    1.0681
815.31                    1.0360
815.57                    0.8607
815.84                    0.8562
816.10                    0.8333
816.37                    0.9099
816.63                    0.9590
816.90                    0.9923
817.16                    0.8922
817.43                    0.8478
817.69                    0.8316
817.96                    0.8356
818.23                    0.8379
818.49                    0.9403
818.76                    0.9679
819.02                    0.9991
819.29                    0.9806
819.55                    0.9481
819.82                    0.9166
820.08                    0.8195
820.35                    0.8208
820.61                    0.8412
820.88                    0.8633
821.14                    0.8744
821.41                    0.8592
821.67                    0.8466
821.94                    0.8652
822.21                    0.8697
822.47                    0.8759
822.74                    0.8767
823.00                    0.8735
823.27                    0.8843
823.53                    0.8604
823.80                    0.8601
824.06                    0.8386
824.33                    0.8865
824.59                    0.8903
824.86                    0.9165
825.12                    0.8695
825.39                    0.8945
825.65                    0.9175
825.92                    0.9724
826.19                    1.0264
826.45                    0.9963
826.72                    0.9442
826.98                    0.9081
827.25                    0.8942
827.51                    1.1047
827.78                    1.0646
828.04                    1.0663
828.31                    0.8679
828.57                    3.7904
828.84                    3.8571
829.10                    3.8685
829.37                    1.5739
829.63                    3.0458
829.90                    3.0663
830.17                    2.4340
830.43                    0.9379
830.70                    0.9084
830.96                    0.9099
831.23                    0.8958
831.49                    0.9552
831.76                    0.9568
832.02                    0.9361
832.29                    0.8795
832.55                    0.8808
832.82                    0.8823
833.08                    0.8838
833.35                    0.8853
833.62                    0.9181
833.88                    0.9772
834.15                    1.8454
834.41                    1.8312
834.68                    1.8680
834.94                    1.0014
835.21                    1.0024
835.47                    0.9117
835.74                    0.9224
836.00                    0.9099
836.27                    0.9754
836.53                    0.9681
836.80                    0.9699
837.06                    0.9311
837.33                    0.9328
837.60                    0.9354
837.86                    0.9134
838.13                    1.0040
838.39                    1.0082
838.66                    1.0101
838.92                    0.9225
839.19                    0.9232
839.45                    0.9482
839.72                    0.9974
839.98                    0.9969
840.25                    0.9753
840.51                    1.0814
840.78                    1.1440
841.04                    1.1479
841.31                    1.0666
841.58                    1.0195
841.84                    1.0496
842.11                    1.0469
842.37                    1.1007
842.64                    1.1799
842.90                    1.1291
843.17                    1.1535
843.43                    1.0723
843.70                    1.0703
843.96                    0.9892
844.23                    0.9669
844.49                    0.9625
844.76                    0.9612
845.02                    0.9909
845.29                    0.9919
845.56                    0.9940
845.82                    0.9681
846.09                    0.9701
846.35                    0.9721
846.62                    1.0096
846.88                    1.0126
847.15                    1.0146
847.41                    0.9810
847.68                    0.9821
847.94                    0.9841
848.21                    0.9862
848.47                    0.9882
848.74                    0.9903
849.00                    1.0008
849.27                    1.0029
849.54                    1.0649
849.80                    1.0587
850.07                    1.0786
850.33                    1.0478
850.60                    1.0527
850.86                    1.0372
851.13                    1.0604
851.39                    1.0619
851.66                    1.0671
851.92                    1.0549
852.19                    1.0952
852.45                    1.0944
852.72                    1.0626
852.98                    1.0244
853.25                    1.0266
853.52                    1.0289
853.78                    1.0311
854.05                    1.0333
854.31                    1.0355
854.58                    1.4692
854.84                    1.4718
855.11                    1.4744
855.37                    1.0442
855.64                    1.0465
855.90                    1.0487
856.17                    1.0510
856.43                    1.0533
856.70                    1.0556
856.96                    1.0579
857.23                    1.0602
857.50                    1.0625
857.76                    1.0648
858.03                    1.0672
858.29                    1.0695
858.56                    1.2570
858.82                    1.2596
859.09                    1.2622
859.35                    1.1188
859.62                    1.1212
859.88                    1.1236
860.15                    1.0861
860.41                    1.0885
860.68                    1.0909
860.95                    1.0933
861.21                    1.0958
861.48                    1.0982
861.74                    1.1109
862.01                    1.5223
862.27                    1.5255
862.54                    2.3842
862.80                    1.9777
863.07                    2.2203
863.33                    1.3542
863.60                    1.3571
863.86                    1.1202
864.13                    1.1227
864.39                    1.4376
864.66                    1.5292
864.93                    1.5321
865.19                    1.5490
865.46                    1.4629
865.72                    1.4658
865.99                    1.1404
866.25                    1.9179
866.52                    1.9213
866.78                    2.9085
867.05                    2.1356
867.31                    2.8554
867.58                    1.8848
867.84                    2.1411
868.11                    1.4263
868.37                    1.4175
868.64                    1.1665
868.91                    1.2673
869.17                    1.2701
869.44                    1.2730
869.70                    1.1832
869.97                    1.1859
870.23                    1.1884
870.50                    1.1872
870.76                    1.1900
871.03                    1.1927
871.29                    1.1932
871.56                    1.1959
871.82                    1.1986
872.09                    1.2014
872.35                    1.2042
872.62                    1.2070
872.89                    1.2098
873.15                    1.2126
873.42                    1.2154
873.68                    1.2182
873.95                    1.2211
874.21                    1.2916
874.48                    1.2946
874.74                    1.3440
875.01                    1.2827
875.27                    1.2857
875.54                    1.3431
875.80                    1.8620
876.07                    1.8933
876.33                    3.4878
876.60                    3.0654
876.87                    3.0406
877.13                    1.3504
877.40                    1.2608
877.66                    1.2639
877.93                    1.2667
878.19                    1.2717
878.46                    1.3052
878.72                    1.3082
878.99                    1.3068
879.25                    1.2790
879.52                    1.2820
879.78                    1.2850
880.05                    1.2879
880.31                    1.2911
880.58                    1.2942
880.85                    1.2972
881.11                    1.3003
881.38                    1.3034
881.64                    1.3065
881.91                    1.3096
882.17                    1.3441
882.44                   14.2522
882.70                   14.2835
882.97                   14.2894
883.23                    1.3426
883.50                    1.3692
883.76                    1.3604
884.03                    1.3637
884.29                    1.3379
884.56                    1.3411
884.83                    1.3885
885.09                    1.3920
885.36                    1.3951
885.62                    1.3539
885.89                    1.3567
886.15                    1.3600
886.42                    1.4735
886.68                    1.4769
886.95                    1.4803
887.21                    1.3731
887.48                    1.3764
887.74                    1.3797
888.01                    1.3829
888.27                    3.9591
888.54                    3.9672
888.81                    3.9754
889.07                    1.3964
889.34                    1.3997
889.60                    1.4031
889.87                    1.4065
890.13                    1.4128
890.40                    1.4162
890.66                    1.4197
890.93                    1.4202
891.19                    1.4236
891.46                    1.4271
891.72                    1.9479
891.99                    1.9524
892.26                    1.9569
892.52                    1.4410
892.79                    1.4445
893.05                    1.4478
893.32                    1.4512
893.58                    1.4546
893.85                    1.4581
894.11                    2.6095
894.38                    2.6154
894.64                    2.6213
894.91                    1.4954
895.17                    1.4991
895.44                    1.5028
895.70                    1.4967
895.97                    1.5004
896.24                    1.5041
896.50                    1.4941
896.77                    1.4978
897.03                    1.5015
897.30                    1.5502
897.56                    1.5608
897.83                    1.6960
898.09                    1.6620
898.36                    1.6597
898.62                    1.5470
898.89                    1.5434
899.15                    1.5467
899.42                    1.5350
899.68                    1.5388
899.95                    1.5908
900.22                    1.6190
900.48                    1.6231
900.75                    1.5781
901.01                    1.6163
901.28                    1.6259
901.54                    1.6300
901.81                    1.5785
902.07                    1.5771
902.34                    1.5811
902.60                    1.6670
902.87                    1.6714
903.13                    1.6960
903.40                    1.6322
903.66                    1.7294
903.93                    1.7134
904.20                    1.8277
904.46                    1.7475
904.73                    2.7071
904.99                    2.6132
905.26                    2.6530
905.52                    1.6945
905.79                    1.6717
906.05                    1.6351
906.32                    1.6393
906.58                    1.6435
906.85                    1.6477
907.11                    1.6519
907.38                    1.6561
907.64                    1.6604
907.91                    1.6647
908.18                    1.7687
908.44                    1.7731
908.71                    1.8310
908.97                    2.2703
909.24                    2.3014
909.50                    2.2541
909.77                    1.7397
910.03                    2.0115
910.30                    2.0173
910.56                    2.0019
910.83                    1.7117
911.09                    1.7407
911.36                    1.7581
911.62                    1.7627
911.89                    1.7424
912.16                    1.7932
912.42                    1.9710
912.69                    1.9764
912.95                    1.9218
913.22                    1.7981
913.48                    1.8028
913.75                    1.8251
914.01                    1.8538
914.28                    1.8636
914.54                    1.8980
914.81                    1.8349
915.07                    1.9107
915.34                    1.8680
915.60                    1.9437
915.87                    5.2743
916.14                    5.4622
916.40                    5.4122
916.67                    1.9794
916.93                    1.8569
917.20                    1.8605
917.46                    1.8868
917.73                    1.9426
917.99                    1.9821
918.26                    2.0906
918.52                    2.2421
918.79                    2.3027
919.05                    2.1914
919.32                    2.0015
919.59                    2.0810
919.85                    2.1574
920.00                    3.1782
920.50                    3.2047
921.00                    3.1979
921.50                    3.1802
922.00                    3.1788
922.50                    3.1980
923.00                    3.1975
923.50                    3.1812
924.00                    3.1657
924.50                    3.1568
925.00                    3.1536
925.50                    3.1648
926.00                    3.1674
926.50                    3.1671
927.00                    3.1744
927.50                    3.1405
928.00                    3.0764
928.50                    3.0525
929.00                    3.0479
929.50                    3.0037
930.00                    2.9916
930.50                    3.9598
931.00                    5.9038
931.50                    6.4418
932.00                    4.9826
932.50                    5.2659
933.00                    4.0984
933.50                    3.0042
934.00                    3.0245
934.50                    2.5054
935.00                    2.4020
935.50                    2.4089
936.00                    2.3060
936.50                    2.4530
937.00                    3.0253
937.50                    5.5259
938.00                    7.2588
938.50                    5.5344
939.00                    4.6363
939.50                    3.9267
940.00                    3.3799
940.50                    3.6590
941.00                    3.1803
941.50                    3.1092
942.00                    3.8049
942.50                    3.7653
943.00                    2.7828
943.50                    3.6485
944.00                    5.1923
944.50                    4.5183
945.00                    3.5035
945.50                    3.3217
946.00                    3.7808
946.50                    3.3223
947.00                    2.9281
947.50                    4.9644
948.00                    6.8836
948.50                    4.3826
949.00                    2.7865
949.50                    2.6255
950.00                    2.9732
950.50                    3.6706
951.00                    3.4888
951.50                    3.9349
952.00                    5.0984
952.50                    4.5452
953.00                    3.2049
953.50                    2.7828
954.00                    2.7463
954.50                    2.6452
955.00                    3.0752
955.50                    3.4891
956.00                    3.0936
956.50                    3.5915
957.00                    4.3700
957.50                    3.7377
958.00                    2.8207
958.50                    2.7241
959.00                    2.6574
959.50                    2.6358
960.00                    2.7602
960.50                    3.0135
961.00                    3.2421
961.50                    3.1784
962.00                    3.3423
962.50                    3.5253
963.00                    3.1837
963.50                    2.8836
964.00                    2.7945
964.50                    2.7812
965.00                    2.8530
965.50                    2.9976
966.00                    3.0519
966.50                    3.2041
967.00                    3.5469
967.50                    3.5600
968.00                    4.0267
968.50                    4.5982
969.00                    4.1227
969.50                    4.3913
970.00                    5.4298
970.50                    4.7927
971.00                    4.0370
971.50                    4.9322
972.00                    6.0626
972.50                    5.5287
973.00                    3.8007
973.50                    3.5290
974.00                    4.1360
974.50                    3.6265
975.00                    3.0285
975.50                    2.9238
976.00                    2.8811
976.50                    2.9031
977.00                    2.9512
977.50                    2.9681
978.00                    2.9422
978.50                    3.9290
979.00                    9.1197
979.50                   13.2008
980.00                    9.7998
980.50                    5.4729
981.00                    4.3360
981.50                    4.0708
982.00                    3.4978
982.50                    3.1232
983.00                    3.2413
983.50                    3.1248
984.00                    2.9954
984.50                    3.8712
985.00                    4.9675
985.50                    4.1910
986.00                    3.1373
986.50                    3.0754
987.00                    6.4484
987.50                    9.8791
988.00                    6.3508
988.50                    3.0239
989.00                    3.6262
989.50                    4.9249
990.00                    4.8782
990.50                    3.5780
991.00                    4.8664
991.50                    8.5226
992.00                    8.2326
992.50                    4.5892
993.00                    2.9553
993.50                    3.0275
994.00                    4.9005
994.50                    9.4185
995.00                   10.5285
995.50                    8.1736
996.00                    9.6293
996.50                    9.5931
997.00                    5.7210
997.50                    4.0486
998.00                    3.5146
998.50                    2.9753
999.00                    2.9384
999.50                    3.1452
1000.00                   3.6520
1000.50                   3.7804
1001.00                   7.6899
1001.50                  12.5117
1002.00                   8.8548
1002.50                   5.5104
1003.00                   5.5179
1003.50                   3.9736
1004.00                   3.4821
1004.50                   4.0171
1005.00                   3.5713
1005.50                   3.3077
1006.00                   4.1907
1006.50                   4.8220
1007.00                   4.3889
1007.50                   3.7990
1008.00                   5.6420
1008.50                   7.9472
1009.00                   5.4632
1009.50                   3.0494
1010.00                   3.8451
1010.50                   4.8499
1011.00                   4.1160
1011.50                   3.0825
1012.00                   5.0448
1012.50                   8.1991
1013.00                   6.9091
1013.50                   3.9568
1014.00                   3.0427
1014.50                   3.1622
1015.00                   4.2968
1015.50                   5.8090
1016.00                   5.6582
1016.50                   4.6212
1017.00                   8.0055
1017.50                  11.8708
1018.00                   8.1506
1018.50                   6.6891
1019.00                   9.8005
1019.50                   9.0201
1020.00                   6.3845
1020.50                   7.2576
1021.00                  11.4460
1021.50                  13.2440
1022.00                   7.5248
1022.50                   4.9332
1023.00                   7.6176
1023.50                   7.1898
1024.00                   4.2116
1024.50                   2.8402
1025.00                   2.8392
1025.50                   2.8372
1026.00                   2.8368
1026.50                   2.8804
1027.00                   3.1996
1027.50                   3.4439
1028.00                   4.5448
1028.50                  19.2679
1029.00                  33.2184
1029.50                  22.5527
1030.00                  12.1404
1030.50                   7.8103
1031.00                   5.4780
1031.50                   5.1329
1032.00                   3.5396
1032.50                   3.3387
1033.00                   3.7199
1033.50                   3.2898
1034.00                   3.0526
1034.50                   5.8950
1035.00                   8.9547
1035.50                   6.2596
1036.00                   3.2572
1036.50                   2.9010
1037.00                  11.5317
1037.50                  21.5000
1038.00                  12.9913
1038.50                   3.5212
1039.00                   3.0138
1039.50                   6.5437
1040.00                   9.8231
1040.50                   6.1032
1041.00                   2.8106
1041.50                  11.1925
1042.00                  21.7121
1042.50                  14.5136
1043.00                   4.5131
1043.50                   2.8723
1044.00                   2.7879
1044.50                   3.4556
1045.00                   6.2087
1045.50                   7.6300
1046.00                   4.7840
1046.50                   7.3052
1047.00                  14.1852
1047.50                  11.5056
1048.00                   4.7890
1048.50                   2.7528
1049.00                   2.7504
1049.50                   2.7573
1050.00                   2.7688
1050.50                   3.7105
1051.00                   5.2459
1051.50                   4.8011
1052.00                   4.7136
1052.50                   7.4275
1053.00                   7.7292
1053.50                   4.4555
1054.00                   2.7327
1054.50                   2.7310
1055.00                   2.7292
1055.50                   2.7274
1056.00                   2.7256
1056.50                   2.7282
1057.00                   3.2840
1057.50                   3.8943
1058.00                   3.5222
1058.50                   4.1010
1059.00                   4.8843
1059.50                   3.6739
1060.00                   2.7200
1060.50                   2.7169
1061.00                   2.7101
1061.50                   2.7056
1062.00                   2.7036
1062.50                   2.7014
1063.00                   2.6994
1063.50                   2.7296
1064.00                   2.9060
1064.50                   3.0288
1065.00                   3.1488
1065.50                   3.3323
1066.00                   3.0185
1066.50                   2.7006
1067.00                   2.6842
1067.50                   2.6809
1068.00                   2.7577
1068.50                   3.2668
1069.00                   3.9039
1069.50                   4.9051
1070.00                   6.0732
1070.50                   5.7871
1071.00                   7.5097
1071.50                   9.5517
1072.00                   7.4692
1072.50                  10.2092
1073.00                  15.2472
1073.50                  10.8699
1074.00                   6.5759
1074.50                   8.5901
1075.00                  14.2962
1075.50                  17.7016
1076.00                   9.2795
1076.50                   2.7012
1077.00                   5.3574
1077.50                   8.1519
1078.00                   5.4267
1078.50                   2.7254
1079.00                   2.6488
1079.50                   2.6534
1080.00                   2.6503
1080.50                   2.6500
1081.00                   2.6374
1081.50                   2.6249
1082.00                   2.6272
1082.50                   5.3620
1083.00                  27.0215
1083.50                  44.7260
1084.00                  29.9711
1084.50                  17.6151
1085.00                   9.9122
1085.50                   5.6569
1086.00                   7.5970
1086.50                   4.8953
1087.00                   2.7728
1087.50                   3.5359
1088.00                   4.0757
1088.50                   3.2530
1089.00                   3.3336
1089.50                   7.6283
1090.00                  10.7561
1090.50                   6.3787
1091.00                   2.7352
1091.50                   2.5954
1092.00                  13.8515
1092.50                  28.3281
1093.00                  19.6153
1093.50                   5.4680
1094.00                   2.6030
1094.50                   6.9207
1095.00                  12.4960
1095.50                   8.9507
1096.00                   3.5146
1096.50                   2.7020
1097.00                  17.3027
1097.50                  33.0216
1098.00                  18.0592
1098.50                   3.1435
1099.00                   2.5256
1099.50                   2.5006
1100.00                   2.8139

